time,kinetic_energy,potential_energy,total_energy,temperature
0.000010,248724.025473,-254661.513439,-5937.487965,296.628095
0.000020,248725.316413,-254661.662896,-5936.346483,296.629988
0.000030,248726.016499,-254661.227344,-5935.210845,296.631176
0.000040,248726.126332,-254660.206794,-5934.080462,296.631659
0.000050,248725.646523,-254658.601268,-5932.954745,296.631439
0.000060,248724.577693,-254656.410799,-5931.833106,296.630515
0.000070,248722.920473,-254653.635431,-5930.714958,296.628888
0.000080,248720.675504,-254650.275218,-5929.599714,296.626560
0.000090,248717.843438,-254646.330224,-5928.486787,296.623531
0.000100,248714.424935,-254641.800526,-5927.375591,296.619802
0.000110,248710.420666,-254636.686209,-5926.265543,296.615374
0.000120,248705.831313,-254630.987371,-5925.156057,296.610247
0.000130,248700.657567,-254624.704118,-5924.046551,296.604422
0.000140,248694.900129,-254617.836569,-5922.936440,296.597900
0.000150,248688.559708,-254610.384852,-5921.825143,296.590683
0.000160,248681.637027,-254602.349106,-5920.712079,296.582770
0.000170,248674.132816,-254593.729482,-5919.596666,296.574163
0.000180,248666.047815,-254584.526140,-5918.478325,296.564862
0.000190,248657.382775,-254574.739251,-5917.356476,296.554869
0.000200,248648.138455,-254564.368996,-5916.230541,296.544184
0.000210,248638.315626,-254553.415568,-5915.099942,296.532809
0.000220,248627.915068,-254541.879170,-5913.964102,296.520743
0.000230,248616.937570,-254529.760015,-5912.822445,296.507989
0.000240,248605.383932,-254517.058327,-5911.674394,296.494547
0.000250,248593.254963,-254503.774339,-5910.519377,296.480418
0.000260,248580.551481,-254489.908299,-5909.356818,296.465603
0.000270,248567.274315,-254475.460460,-5908.186145,296.450103
0.000280,248553.424303,-254460.431089,-5907.006786,296.433918
0.000290,248539.002294,-254444.820463,-5905.818169,296.417051
0.000300,248524.009145,-254428.628868,-5904.619723,296.399502
0.000310,248508.445722,-254411.856602,-5903.410880,296.381272
0.000320,248492.312904,-254394.503974,-5902.191070,296.362362
0.000330,248475.611576,-254376.571301,-5900.959725,296.342773
0.000340,248458.342634,-254358.058913,-5899.716279,296.322506
0.000350,248440.506984,-254338.967150,-5898.460165,296.301563
0.000360,248422.105542,-254319.296360,-5897.190819,296.279943
0.000370,248403.139231,-254299.046905,-5895.907675,296.257650
0.000380,248383.608986,-254278.219156,-5894.610170,296.234683
0.000390,248363.515750,-254256.813493,-5893.297742,296.211043
0.000400,248342.860478,-254234.830308,-5891.969830,296.186732
0.000410,248321.644130,-254212.270003,-5890.625873,296.161752
0.000420,248299.867680,-254189.132990,-5889.265311,296.136102
0.000430,248277.532108,-254165.419693,-5887.887586,296.109785
0.000440,248254.638405,-254141.130545,-5886.492139,296.082801
0.000450,248231.187572,-254116.265988,-5885.078416,296.055151
0.000460,248207.180618,-254090.826477,-5883.645859,296.026838
0.000470,248182.618562,-254064.812476,-5882.193914,295.997861
0.000480,248157.502431,-254038.224459,-5880.722028,295.968223
0.000490,248131.833263,-254011.062911,-5879.229648,295.937925
0.000500,248105.612105,-253983.328327,-5877.716222,295.906967
0.000510,248078.840012,-253955.021212,-5876.181200,295.875351
0.000520,248051.518050,-253926.142083,-5874.624033,295.843078
0.000530,248023.647292,-253896.691464,-5873.044172,295.810150
0.000540,247995.228823,-253866.669892,-5871.441069,295.776567
0.000550,247966.263742,-253836.077916,-5869.814174,295.742332
0.000560,247936.753152,-253804.916103,-5868.162952,295.707445
0.000570,247906.698166,-253773.185015,-5866.486848,295.671908
0.000580,247876.099914,-253740.885252,-5864.785337,295.635722
0.000590,247844.959511,-253708.017369,-5863.057857,295.598889
0.000600,247813.278088,-253674.581963,-5861.303875,295.561409
0.000610,247781.056791,-253640.579642,-5859.522852,295.523285
0.000620,247748.296787,-253606.011044,-5857.714258,295.484517
0.000630,247714.999241,-253570.876778,-5855.877537,295.445106
0.000640,247681.165316,-253535.177479,-5854.012163,295.405056
0.000650,247646.796194,-253498.913795,-5852.117600,295.364365
0.000660,247611.893067,-253462.086383,-5850.193316,295.323037
0.000670,247576.457145,-253424.695931,-5848.238786,295.281073
0.000680,247540.489645,-253386.743112,-5846.253468,295.238473
0.000690,247503.991773,-253348.228600,-5844.236827,295.195240
0.000700,247466.964750,-253309.153092,-5842.188342,295.151375
0.000710,247429.409812,-253269.517296,-5840.107485,295.106879
0.000720,247391.328202,-253229.321930,-5837.993728,295.061754
0.000730,247352.721173,-253188.567720,-5835.846547,295.016002
0.000740,247313.590003,-253147.255412,-5833.665409,294.969623
0.000750,247273.935962,-253105.385771,-5831.449809,294.922619
0.000760,247233.760323,-253062.959546,-5829.199223,294.874992
0.000770,247193.064387,-253019.977514,-5826.913127,294.826744
0.000780,247151.849461,-252976.440460,-5824.590999,294.777876
0.000790,247110.116838,-252932.349156,-5822.232318,294.728389
0.000800,247067.867826,-252887.704400,-5819.836574,294.678285
0.000810,247025.103740,-252842.506984,-5817.403244,294.627566
0.000820,246981.825904,-252796.757723,-5814.931818,294.576233
0.000830,246938.035672,-252750.457447,-5812.421776,294.524288
0.000840,246893.734383,-252703.607012,-5809.872629,294.471733
0.000850,246848.923386,-252656.207238,-5807.283852,294.418568
0.000860,246803.604051,-252608.258993,-5804.654942,294.364796
0.000870,246757.777745,-252559.763138,-5801.985392,294.310418
0.000880,246711.445857,-252510.720550,-5799.274693,294.255436
0.000890,246664.609781,-252461.132122,-5796.522341,294.199852
0.000900,246617.270924,-252410.998765,-5793.727841,294.143667
0.000910,246569.430694,-252360.321381,-5790.890687,294.086883
0.000920,246521.090492,-252309.100871,-5788.010379,294.029501
0.000930,246472.251737,-252257.338142,-5785.086406,293.971524
0.000940,246422.915846,-252205.034128,-5782.118281,293.912952
0.000950,246373.084254,-252152.189769,-5779.105514,293.853789
0.000960,246322.758415,-252098.806016,-5776.047601,293.794035
0.000970,246271.939792,-252044.883855,-5772.944063,293.733691
0.000980,246220.629844,-251990.424239,-5769.794395,293.672761
0.000990,246168.830032,-251935.428142,-5766.598110,293.611246
0.001000,246116.541828,-251879.896546,-5763.354718,293.549146
0.001010,246063.766725,-251823.830462,-5760.063736,293.486465
0.001020,246010.506226,-251767.230911,-5756.724685,293.423204
0.001030,245956.761828,-251710.098894,-5753.337065,293.359365
0.001040,245902.535030,-251652.435438,-5749.900408,293.294949
0.001050,245847.827362,-251594.241588,-5746.414226,293.229958
0.001060,245792.640357,-251535.518398,-5742.878041,293.164394
0.001070,245736.975537,-251476.266908,-5739.291371,293.098260
0.001080,245680.834438,-251416.488175,-5735.653736,293.031556
0.001090,245624.218616,-251356.183290,-5731.964673,292.964285
0.001100,245567.129621,-251295.353331,-5728.223710,292.896448
0.001110,245509.569016,-251233.999379,-5724.430363,292.828048
0.001120,245451.538376,-251172.122546,-5720.584170,292.759086
0.001130,245393.039274,-251109.723939,-5716.684665,292.689564
0.001140,245334.073291,-251046.804664,-5712.731372,292.619484
0.001150,245274.642027,-250983.365854,-5708.723827,292.548847
0.001160,245214.747082,-250919.408645,-5704.661563,292.477657
0.001170,245154.390068,-250854.934188,-5700.544120,292.405914
0.001180,245093.572601,-250789.943649,-5696.371047,292.333621
0.001190,245032.296294,-250724.438174,-5692.141880,292.260780
0.001200,244970.562771,-250658.418929,-5687.856158,292.187392
0.001210,244908.373680,-250591.887103,-5683.513423,292.113459
0.001220,244845.730662,-250524.843890,-5679.113228,292.038984
0.001230,244782.635364,-250457.290482,-5674.655117,291.963968
0.001240,244719.089472,-250389.228111,-5670.138639,291.888413
0.001250,244655.094674,-250320.658015,-5665.563341,291.812322
0.001260,244590.652621,-250251.581401,-5660.928780,291.735696
0.001270,244525.764993,-250181.999507,-5656.234515,291.658538
0.001280,244460.433470,-250111.913561,-5651.480091,291.580848
0.001290,244394.659735,-250041.324802,-5646.665066,291.502631
0.001300,244328.445503,-249970.234506,-5641.789003,291.423886
0.001310,244261.792493,-249898.643971,-5636.851478,291.344617
0.001320,244194.702430,-249826.554468,-5631.852038,291.264825
0.001330,244127.177028,-249753.967270,-5626.790242,291.184513
0.001340,244059.218001,-249680.883661,-5621.665660,291.103683
0.001350,243990.827081,-249607.304937,-5616.477856,291.022336
0.001360,243922.006006,-249533.232413,-5611.226406,290.940475
0.001370,243852.756521,-249458.667403,-5605.910882,290.858102
0.001380,243783.080384,-249383.611234,-5600.530851,290.775218
0.001390,243712.979370,-249308.065268,-5595.085898,290.691827
0.001400,243642.455247,-249232.030838,-5589.575591,290.607929
0.001410,243571.509788,-249155.509301,-5583.999514,290.523528
0.001420,243500.144784,-249078.502027,-5578.357243,290.438625
0.001430,243428.362029,-249001.010375,-5572.648346,290.353223
0.001440,243356.163309,-248923.035735,-5566.872426,290.267323
0.001450,243283.550427,-248844.579490,-5561.029062,290.180928
0.001460,243210.525198,-248765.643037,-5555.117839,290.094040
0.001470,243137.089426,-248686.227774,-5549.138348,290.006660
0.001480,243063.244928,-248606.335106,-5543.090178,289.918793
0.001490,242988.993538,-248525.966462,-5536.972924,289.830438
0.001500,242914.337095,-248445.123274,-5530.786180,289.741599
0.001510,242839.277447,-248363.806983,-5524.529536,289.652278
0.001520,242763.816443,-248282.019043,-5518.202600,289.562477
0.001530,242687.955923,-248199.760891,-5511.804968,289.472198
0.001540,242611.697746,-248117.033984,-5505.336238,289.381443
0.001550,242535.043791,-248033.839806,-5498.796015,289.290216
0.001560,242457.995926,-247950.179834,-5492.183908,289.198517
0.001570,242380.556021,-247866.055547,-5485.499525,289.106349
0.001580,242302.725959,-247781.468430,-5478.742471,289.013714
0.001590,242224.507628,-247696.419989,-5471.912361,288.920615
0.001600,242145.902926,-247610.911727,-5465.008802,288.827054
0.001610,242066.913752,-247524.945165,-5458.031413,288.733033
0.001620,241987.542030,-247438.521842,-5450.979812,288.638554
0.001630,241907.789673,-247351.643286,-5443.853613,288.543620
0.001640,241827.658589,-247264.311026,-5436.652437,288.448233
0.001650,241747.150696,-247176.526604,-5429.375909,288.352395
0.001660,241666.267928,-247088.291581,-5422.023653,288.256109
0.001670,241585.012230,-246999.607527,-5414.595297,288.159377
0.001680,241503.385543,-246910.476005,-5407.090462,288.062201
0.001690,241421.389823,-246820.898606,-5399.508783,287.964583
0.001700,241339.027021,-246730.876915,-5391.849894,287.866526
0.001710,241256.299093,-246640.412524,-5384.113431,287.768032
0.001720,241173.208010,-246549.507027,-5376.299018,287.669104
0.001730,241089.755730,-246458.162034,-5368.406304,287.569744
0.001740,241005.944244,-246366.379180,-5360.434936,287.469954
0.001750,240921.775542,-246274.160078,-5352.384536,287.369736
0.001760,240837.251594,-246181.506351,-5344.254757,287.269094
0.001770,240752.374386,-246088.419636,-5336.045249,287.168028
0.001780,240667.145924,-245994.901576,-5327.755653,287.066543
0.001790,240581.568201,-245900.953823,-5319.385622,286.964639
0.001800,240495.643227,-245806.578034,-5310.934808,286.862320
0.001810,240409.373018,-245711.775882,-5302.402864,286.759588
0.001820,240322.759595,-245616.549038,-5293.789443,286.656445
0.001830,240235.804981,-245520.899191,-5285.094209,286.552894
0.001840,240148.511214,-245424.828034,-5276.316820,286.448937
0.001850,240060.880333,-245328.337270,-5267.456937,286.344576
0.001860,239972.914358,-245231.428585,-5258.514226,286.239814
0.001870,239884.615325,-245134.103676,-5249.488351,286.134654
0.001880,239795.985287,-245036.364264,-5240.378977,286.029097
0.001890,239707.026308,-244938.212094,-5231.185786,285.923147
0.001900,239617.740443,-244839.648877,-5221.908434,285.816806
0.001910,239528.129749,-244740.676357,-5212.546607,285.710075
0.001920,239438.196302,-244641.296278,-5203.099976,285.602959
0.001930,239347.942173,-244541.510386,-5193.568213,285.495458
0.001940,239257.369442,-244441.320448,-5183.951006,285.387576
0.001950,239166.480192,-244340.728240,-5174.248048,285.279316
0.001960,239075.276496,-244239.735499,-5164.459003,285.170678
0.001970,238983.760449,-244138.344018,-5154.583569,285.061667
0.001980,238891.934156,-244036.555589,-5144.621432,284.952284
0.001990,238799.799708,-243934.371987,-5134.572279,284.842533
0.002000,238707.359212,-243831.795018,-5124.435806,284.732415
0.002010,238614.614782,-243728.826491,-5114.211709,284.621933
0.002020,238521.568514,-243625.468200,-5103.899686,284.511089
0.002030,238428.222531,-243521.721965,-5093.499434,284.399887
0.002040,238334.578960,-243417.589618,-5083.010658,284.288329
0.002050,238240.639923,-243313.072981,-5072.433058,284.176416
0.002060,238146.407548,-243208.173884,-5061.766336,284.064152
0.002070,238051.883960,-243102.894166,-5051.010205,283.951540
0.002080,237957.071306,-242997.235675,-5040.164369,283.838581
0.002090,237861.971729,-242891.200276,-5029.228546,283.725279
0.002100,237766.587384,-242784.789831,-5018.202446,283.611636
0.002110,237670.920420,-242678.006210,-5007.085790,283.497654
0.002120,237574.972980,-242570.851280,-4995.878299,283.383336
0.002130,237478.747227,-242463.326910,-4984.579684,283.268685
0.002140,237382.245326,-242355.434993,-4973.189666,283.153703
0.002150,237285.469449,-242247.177432,-4961.707982,283.038393
0.002160,237188.421763,-242138.556118,-4950.134355,282.922757
0.002170,237091.104444,-242029.572959,-4938.468515,282.806798
0.002180,236993.519657,-241920.229838,-4926.710181,282.690519
0.002190,236895.669583,-241810.528678,-4914.859095,282.573922
0.002200,236797.556421,-241700.471402,-4902.914982,282.457009
0.002210,236699.182360,-241590.059967,-4890.877607,282.339785
0.002220,236600.549586,-241479.296265,-4878.746679,282.222250
0.002230,236501.660291,-241368.182251,-4866.521960,282.104407
0.002240,236402.516675,-241256.719866,-4854.203191,281.986260
0.002250,236303.120951,-241144.911069,-4841.790117,281.867811
0.002260,236203.475318,-241032.757803,-4829.282485,281.749062
0.002270,236103.581983,-240920.262043,-4816.680060,281.630017
0.002280,236003.443169,-240807.425737,-4803.982568,281.510677
0.002290,235903.061081,-240694.250863,-4791.189782,281.391045
0.002300,235802.437930,-240580.739381,-4778.301451,281.271125
0.002310,235701.575945,-240466.893291,-4765.317346,281.150918
0.002320,235600.477356,-240352.714578,-4752.237222,281.030428
0.002330,235499.144385,-240238.205228,-4739.060843,280.909656
0.002340,235397.579256,-240123.367231,-4725.787976,280.788607
0.002350,235295.784205,-240008.202593,-4712.418388,280.667281
0.002360,235193.761472,-239892.713322,-4698.951849,280.545683
0.002370,235091.513295,-239776.901433,-4685.388138,280.423814
0.002380,234989.041914,-239660.768941,-4671.727027,280.301678
0.002390,234886.349576,-239544.317869,-4657.968293,280.179276
0.002400,234783.438535,-239427.550253,-4644.111718,280.056613
0.002410,234680.311044,-239310.468126,-4630.157082,279.933689
0.002420,234576.969371,-239193.073532,-4616.104161,279.810509
0.002430,234473.415773,-239075.368530,-4601.952757,279.687075
0.002440,234369.652501,-238957.355158,-4587.702656,279.563389
0.002450,234265.681822,-238839.035466,-4573.353644,279.439454
0.002460,234161.506002,-238720.411514,-4558.905512,279.315273
0.002470,234057.127300,-238601.485365,-4544.358065,279.190849
0.002480,233952.547984,-238482.259082,-4529.711098,279.066184
0.002490,233847.770327,-238362.734733,-4514.964406,278.941281
0.002500,233742.796607,-238242.914406,-4500.117800,278.816142
0.002510,233637.629109,-238122.800179,-4485.171070,278.690771
0.002520,233532.270107,-238002.394142,-4470.124035,278.565170
0.002530,233426.721880,-237881.698382,-4454.976502,278.439343
0.002540,233320.986712,-237760.714991,-4439.728280,278.313290
0.002550,233215.066891,-237639.446075,-4424.379184,278.187016
0.002560,233108.964716,-237517.893744,-4408.929028,278.060523
0.002570,233002.682477,-237396.060111,-4393.377634,277.933814
0.002580,232896.222471,-237273.947294,-4377.724822,277.806891
0.002590,232789.586995,-237151.557408,-4361.970413,277.679757
0.002600,232682.778333,-237028.892567,-4346.114235,277.552416
0.002610,232575.798781,-236905.954894,-4330.156113,277.424869
0.002620,232468.650660,-236782.746525,-4314.095865,277.297120
0.002630,232361.336274,-236659.269621,-4297.933348,277.169171
0.002640,232253.857916,-236535.526298,-4281.668382,277.041025
0.002650,232146.217893,-236411.518702,-4265.300809,276.912684
0.002660,232038.418514,-236287.248979,-4248.830465,276.784152
0.002670,231930.462089,-236162.719279,-4232.257190,276.655432
0.002680,231822.350923,-236037.931752,-4215.580829,276.526525
0.002690,231714.087332,-235912.888558,-4198.801226,276.397435
0.002700,231605.673636,-235787.591869,-4181.918233,276.268165
0.002710,231497.112151,-235662.043850,-4164.931699,276.138717
0.002720,231388.405204,-235536.246676,-4147.841471,276.009094
0.002730,231279.555137,-235410.202559,-4130.647422,275.879298
0.002740,231170.564261,-235283.913647,-4113.349386,275.749334
0.002750,231061.434884,-235157.382121,-4095.947237,275.619202
0.002760,230952.169327,-235030.610160,-4078.440833,275.488907
0.002770,230842.769910,-234903.599949,-4060.830039,275.358451
0.002780,230733.238961,-234776.353684,-4043.114723,275.227836
0.002790,230623.578814,-234648.873565,-4025.294750,275.097066
0.002800,230513.791804,-234521.161798,-4007.369994,274.966143
0.002810,230403.880258,-234393.220593,-3989.340334,274.835070
0.002820,230293.846505,-234265.052144,-3971.205640,274.703850
0.002830,230183.692878,-234136.658675,-3952.965797,274.572486
0.002840,230073.421712,-234008.042387,-3934.620675,274.440979
0.002850,229963.035338,-233879.205496,-3916.170157,274.309334
0.002860,229852.536091,-233750.150230,-3897.614139,274.177553
0.002870,229741.926304,-233620.878808,-3878.952504,274.045639
0.002880,229631.208315,-233491.393456,-3860.185141,273.913594
0.002890,229520.384473,-233361.696412,-3841.311938,273.781421
0.002900,229409.457124,-233231.789922,-3822.332797,273.649124
0.002910,229298.428600,-233101.676214,-3803.247614,273.516704
0.002920,229187.301242,-232971.357526,-3784.056284,273.384165
0.002930,229076.077395,-232840.836104,-3764.758709,273.251510
0.002940,228964.759399,-232710.114205,-3745.354806,273.118740
0.002950,228853.349586,-232579.194054,-3725.844467,272.985860
0.002960,228741.850300,-232448.077902,-3706.227603,272.852872
0.002970,228630.263892,-232316.768026,-3686.504135,272.719778
0.002980,228518.592706,-232185.266672,-3666.673966,272.586582
0.002990,228406.839084,-232053.576095,-3646.737010,272.453286
0.003000,228295.005379,-231921.698570,-3626.693191,272.319893
0.003010,228183.093936,-231789.636354,-3606.542418,272.186406
0.003020,228071.107097,-231657.391723,-3586.284627,272.052827
0.003030,227959.047202,-231524.966948,-3565.919745,271.919160
0.003040,227846.916595,-231392.364291,-3545.447696,271.785408
0.003050,227734.717616,-231259.586022,-3524.868405,271.651572
0.003060,227622.452615,-231126.634426,-3504.181811,271.517656
0.003070,227510.123939,-230993.511777,-3483.387838,271.383662
0.003080,227397.733937,-230860.220369,-3462.486432,271.249594
0.003090,227285.284952,-230726.762481,-3441.477529,271.115455
0.003100,227172.779323,-230593.140394,-3420.361071,270.981246
0.003110,227060.219395,-230459.356397,-3399.137002,270.846971
0.003120,226947.607513,-230325.412780,-3377.805267,270.712633
0.003130,226834.946019,-230191.311835,-3356.365817,270.578234
0.003140,226722.237265,-230057.055864,-3334.818600,270.443777
0.003150,226609.483593,-229922.647163,-3313.163570,270.309266
0.003160,226496.687345,-229788.088030,-3291.400685,270.174702
0.003170,226383.850873,-229653.380775,-3269.529902,270.040088
0.003180,226270.976518,-229518.527695,-3247.551177,269.905429
0.003190,226158.066615,-229383.531091,-3225.464476,269.770725
0.003200,226045.123509,-229248.393271,-3203.269762,269.635980
0.003210,225932.149549,-229113.116556,-3180.967007,269.501197
